#[1]xEvo [2]T [3]Muu [4]Mud [5]Mus [6]Tau [7]E
0.01 0.16081 0.792376 0.836838 0 0.00392301 0.129155
0.0102531 0.16272 0.790117 0.834706 0 0.00400137 0.129943
0.0105126 0.164792 0.787639 0.83233 0 0.00407615 0.130748
0.0107786 0.166861 0.785135 0.829929 0 0.00415341 0.131569
0.0110514 0.168926 0.782606 0.827503 0 0.00423324 0.132407
0.0113311 0.170988 0.780053 0.825054 0 0.00431571 0.133261
0.0116179 0.173045 0.777476 0.822581 0 0.0044009 0.134131
0.0119119 0.175099 0.774876 0.820086 0 0.00448889 0.135018
0.0122134 0.177148 0.772254 0.81757 0 0.00457976 0.135923
0.0125225 0.179191 0.769611 0.815033 0 0.00467361 0.136844
0.0128395 0.18123 0.766947 0.812475 0 0.00477052 0.137782
0.0131644 0.183263 0.764263 0.809898 0 0.00487058 0.138737
0.0134976 0.18529 0.76156 0.807302 0 0.00497389 0.139709
0.0138392 0.187311 0.758839 0.804688 0 0.00508056 0.140699
0.0141894 0.189326 0.7561 0.802056 0 0.00519067 0.141706
0.0145486 0.191334 0.753344 0.799407 0 0.00530434 0.14273
0.0149168 0.193336 0.750572 0.796742 0 0.00542168 0.143772
0.0152943 0.19533 0.747785 0.794062 0 0.00554279 0.144832
0.0156814 0.197318 0.744982 0.791367 0 0.0056678 0.145909
0.0160782 0.199299 0.742166 0.788657 0 0.00579683 0.147004
0.0164852 0.201272 0.739336 0.785934 0 0.00592999 0.148117
0.0169024 0.203238 0.736493 0.783198 0 0.00606742 0.149248
0.0173301 0.205196 0.733638 0.780449 0 0.00620925 0.150397
0.0177688 0.207147 0.730772 0.777688 0 0.00635562 0.151565
0.0182185 0.20909 0.727895 0.774917 0 0.00650666 0.15275
0.0186795 0.211025 0.725008 0.772134 0 0.00666253 0.153954
0.0191523 0.212952 0.722111 0.769342 0 0.00682337 0.155177
0.019637 0.214871 0.719205 0.76654 0 0.00698934 0.156418
0.020134 0.216782 0.716291 0.763729 0 0.00716061 0.157678
0.0206436 0.218685 0.713369 0.760909 0 0.00733733 0.158957
0.021166 0.22058 0.710439 0.758081 0 0.00751969 0.160255
0.0217017 0.222467 0.707503 0.755246 0 0.00770785 0.161572
0.022251 0.224345 0.704561 0.752405 0 0.00790201 0.162908
0.0228141 0.226216 0.701614 0.749556 0 0.00810235 0.164264
0.0233915 0.228078 0.698661 0.746702 0 0.00830907 0.165639
0.0239835 0.229932 0.695704 0.743842 0 0.00852237 0.167034
0.0245905 0.231778 0.692743 0.740977 0 0.00874247 0.168448
0.0252129 0.233615 0.689778 0.738107 0 0.00896957 0.169882
0.025851 0.235445 0.68681 0.735233 0 0.0092039 0.171336
0.0265052 0.237266 0.68384 0.732356 0 0.00944571 0.17281
0.027176 0.239079 0.680867 0.729475 0 0.00969521 0.174304
0.0278638 0.240884 0.677893 0.726591 0 0.00995267 0.175819
0.028569 0.242681 0.674918 0.723705 0 0.0102183 0.177354
0.0292921 0.24447 0.671941 0.720816 0 0.0104925 0.17891
0.0300334 0.24625 0.668965 0.717926 0 0.0107754 0.180487
0.0307935 0.248023 0.665988 0.715034 0 0.0110673 0.182084
0.0315729 0.249788 0.663012 0.712141 0 0.0113685 0.183703
0.0323719 0.251545 0.660037 0.709248 0 0.0116793 0.185342
0.0331912 0.253295 0.657063 0.706354 0 0.0120001 0.187004
0.0340312 0.255036 0.65409 0.70346 0 0.0123312 0.188686
0.0348925 0.25677 0.651119 0.700566 0 0.0126728 0.190391
0.0357756 0.258496 0.648151 0.697673 0 0.0130254 0.192117
0.036681 0.260215 0.645185 0.694781 0 0.0133892 0.193865
0.0376094 0.261926 0.642223 0.691891 0 0.0137647 0.195635
0.0385612 0.263629 0.639263 0.689001 0 0.0141523 0.197428
0.0395372 0.265325 0.636307 0.686114 0 0.0145523 0.199242
0.0405378 0.267014 0.633356 0.683229 0 0.0149651 0.20108
0.0415638 0.268696 0.630408 0.680346 0 0.0153911 0.20294
0.0426157 0.27037 0.627465 0.677465 0 0.0158309 0.204824
0.0436942 0.272037 0.624527 0.674588 0 0.0162848 0.20673
0.0448001 0.273698 0.621593 0.671714 0 0.0167534 0.20866
0.0459339 0.275351 0.618666 0.668843 0 0.017237 0.210613
0.0470965 0.276997 0.615744 0.665976 0 0.0177362 0.21259
0.0482884 0.278636 0.612828 0.663113 0 0.0182514 0.21459
0.0495105 0.280269 0.609918 0.660254 0 0.0187834 0.216615
0.0507636 0.281895 0.607014 0.657399 0 0.0193325 0.218664
0.0520483 0.283514 0.604117 0.654549 0 0.0198993 0.220737
0.0533656 0.285127 0.601227 0.651703 0 0.0204845 0.222834
0.0547162 0.286733 0.598344 0.648863 0 0.0210886 0.224956
0.056101 0.288333 0.595469 0.646028 0 0.0217122 0.227104
0.0575209 0.289926 0.592601 0.643198 0 0.0223561 0.229276
0.0589766 0.291514 0.589741 0.640374 0 0.0230209 0.231473
0.0604693 0.293095 0.586889 0.637556 0 0.0237072 0.233696
0.0619997 0.294669 0.584045 0.634744 0 0.0244158 0.235944
0.0635688 0.296238 0.58121 0.631938 0 0.0251475 0.238218
0.0651776 0.297801 0.578383 0.629138 0 0.025903 0.240518
0.0668272 0.299358 0.575565 0.626345 0 0.026683 0.242844
0.0685185 0.300908 0.572756 0.623558 0 0.0274885 0.245197
0.0702526 0.302454 0.569956 0.620779 0 0.0283202 0.247576
0.0720306 0.303993 0.567166 0.618006 0 0.029179 0.249981
0.0738536 0.305527 0.564384 0.615241 0 0.0300659 0.252414
0.0757228 0.307055 0.561613 0.612483 0 0.0309818 0.254873
0.0776392 0.308577 0.558852 0.609733 0 0.0319276 0.25736
0.0796042 0.310094 0.5561 0.60699 0 0.0329043 0.259874
0.0816189 0.311606 0.553358 0.604255 0 0.0339131 0.262416
0.0836845 0.313112 0.550627 0.601528 0 0.0349549 0.264985
0.0858025 0.314613 0.547907 0.59881 0 0.0360308 0.267582
0.087974 0.316109 0.545196 0.596099 0 0.0371421 0.270208
0.0902005 0.3176 0.542497 0.593397 0 0.0382899 0.272862
0.0924834 0.319085 0.539808 0.590704 0 0.0394754 0.275544
0.094824 0.320565 0.537131 0.588019 0 0.0406998 0.278255
0.0972239 0.322041 0.534464 0.585343 0 0.0419646 0.280994
0.0996845 0.323511 0.531809 0.582676 0 0.0432711 0.283763
0.102207 0.324977 0.529165 0.580018 0 0.0446206 0.286561
0.104794 0.326437 0.526532 0.57737 0 0.0460146 0.289388
0.107446 0.327893 0.523911 0.57473 0 0.0474547 0.292244
0.110166 0.329344 0.521302 0.5721 0 0.0489423 0.295131
0.112954 0.33079 0.518704 0.56948 0 0.0504792 0.298047
0.115813 0.332232 0.516119 0.566869 0 0.0520668 0.300992
0.118744 0.333669 0.513545 0.564269 0 0.0537071 0.303968
0.121749 0.335101 0.510984 0.561678 0 0.0554017 0.306974
0.12483 0.336529 0.508435 0.559097 0 0.0571525 0.310011
0.127989 0.337953 0.505898 0.556526 0 0.0589614 0.313078
0.131229 0.339371 0.503373 0.553966 0 0.0608303 0.316176
0.13455 0.340786 0.500861 0.551416 0 0.0627614 0.319304
0.137955 0.342196 0.498361 0.548876 0 0.0647567 0.322463
0.141447 0.343602 0.495874 0.546347 0 0.0668185 0.325654
0.145027 0.345003 0.4934 0.543829 0 0.0689489 0.328875
0.148697 0.3464 0.490939 0.541321 0 0.0711503 0.332128
0.15246 0.347792 0.488491 0.538824 0 0.0734251 0.335412
0.156319 0.349181 0.486055 0.536339 0 0.0757759 0.338728
0.160275 0.350565 0.483633 0.533864 0 0.0782053 0.342075
0.164331 0.351945 0.481224 0.531401 0 0.0807158 0.345453
0.16849 0.353321 0.478828 0.528949 0 0.0833104 0.348864
0.172755 0.354692 0.476445 0.526508 0 0.0859918 0.352306
0.177127 0.35606 0.474076 0.524079 0 0.0887631 0.35578
0.18161 0.357423 0.47172 0.521661 0 0.0916273 0.359286
0.186206 0.358782 0.469377 0.519255 0 0.0945876 0.362823
0.190919 0.360137 0.467048 0.516861 0 0.0976474 0.366393
0.195751 0.361488 0.464733 0.514479 0 0.10081 0.369995
0.200705 0.362835 0.462431 0.512109 0 0.104079 0.373629
0.205784 0.364178 0.460144 0.50975 0 0.107458 0.377295
0.210993 0.365516 0.45787 0.507404 0 0.110951 0.380993
0.216333 0.366851 0.455609 0.50507 0 0.114561 0.384722
0.221808 0.368181 0.453363 0.502749 0 0.118294 0.388484
0.227421 0.369507 0.451131 0.50044 0 0.122152 0.392278
0.233177 0.370829 0.448913 0.498143 0 0.126141 0.396104
0.239078 0.372147 0.446709 0.495859 0 0.130265 0.399962
0.245129 0.373461 0.444519 0.493588 0 0.134528 0.403851
0.251333 0.374771 0.442343 0.491329 0 0.138936 0.407772
0.257694 0.376077 0.440182 0.489084 0 0.143493 0.411725
0.264216 0.377378 0.438035 0.486851 0 0.148205 0.41571
0.270903 0.378675 0.435902 0.484631 0 0.153077 0.419726
0.277759 0.379968 0.433784 0.482425 0 0.158114 0.423773
0.284789 0.381257 0.43168 0.480231 0 0.163323 0.427851
0.291996 0.382541 0.42959 0.478051 0 0.168709 0.43196
0.299386 0.383822 0.427516 0.475885 0 0.174279 0.4361
0.306964 0.385098 0.425456 0.473732 0 0.180038 0.44027
0.314732 0.386369 0.42341 0.471592 0 0.185994 0.444471
0.322698 0.387636 0.42138 0.469466 0 0.192153 0.448702
0.330865 0.388899 0.419364 0.467354 0 0.198523 0.452963
0.339239 0.390157 0.417363 0.465255 0 0.205111 0.457253
0.347824 0.391411 0.415376 0.463171 0 0.211924 0.461573
0.356627 0.39266 0.413405 0.4611 0 0.218971 0.465922
0.365653 0.393904 0.411449 0.459044 0 0.22626 0.470299
0.374907 0.395144 0.409508 0.457002 0 0.233799 0.474705
0.384396 0.39638 0.407581 0.454974 0 0.241597 0.479138
0.394124 0.39761 0.40567 0.45296 0 0.249663 0.483599
0.404099 0.398836 0.403774 0.450961 0 0.258007 0.488088
0.414326 0.400056 0.401893 0.448976 0 0.266638 0.492603
0.424813 0.401272 0.400028 0.447006 0 0.275567 0.497144
0.435564 0.402483 0.398178 0.44505 0 0.284804 0.501711
0.446588 0.403689 0.396343 0.44311 0 0.294361 0.506303
0.45789 0.404889 0.394523 0.441184 0 0.304248 0.51092
0.469479 0.406085 0.392719 0.439273 0 0.314477 0.515561
0.481361 0.407275 0.39093 0.437377 0 0.32506 0.520226
0.493543 0.40846 0.389157 0.435496 0 0.336011 0.524914
0.506034 0.409639 0.3874 0.43363 0 0.347342 0.529624
0.518841 0.410813 0.385658 0.43178 0 0.359067 0.534356
0.531972 0.411981 0.383931 0.429944 0 0.3712 0.539109
0.545436 0.413144 0.382221 0.428125 0 0.383755 0.543882
0.55924 0.414301 0.380526 0.42632 0 0.396747 0.548675
0.573394 0.415452 0.378846 0.424531 0 0.410194 0.553486
0.587906 0.416597 0.377183 0.422758 0 0.424109 0.558316
0.602785 0.417736 0.375536 0.421001 0 0.438512 0.563163
0.618041 0.418868 0.373904 0.419259 0 0.453418 0.568026
0.633682 0.419995 0.372288 0.417534 0 0.468847 0.572905
0.64972 0.421115 0.370689 0.415824 0 0.484817 0.577799
0.666164 0.422229 0.369105 0.41413 0 0.501348 0.582706
0.683023 0.423336 0.367537 0.412453 0 0.51846 0.587626
0.70031 0.424437 0.365986 0.410791 0 0.536173 0.592558
0.718034 0.425531 0.36445 0.409146 0 0.554511 0.5975
0.736206 0.426618 0.362931 0.407517 0 0.573496 0.602453
0.754839 0.427698 0.361428 0.405905 0 0.593151 0.607414
0.773943 0.428771 0.359941 0.404309 0 0.6135 0.612383
0.79353 0.429837 0.35847 0.40273 0 0.63457 0.617358
0.813614 0.430896 0.357016 0.401167 0 0.656386 0.622338
0.834205 0.431947 0.355578 0.39962 0 0.678975 0.627323
0.855318 0.43299 0.354156 0.398091 0 0.702367 0.632311
0.876965 0.434026 0.352751 0.396578 0 0.72659 0.637301
0.89916 0.435054 0.351362 0.395083 0 0.751675 0.642291
0.921916 0.436075 0.34999 0.393604 0 0.777653 0.647281
0.945249 0.437087 0.348634 0.392142 0 0.804558 0.652269
0.969172 0.438091 0.347294 0.390697 0 0.832424 0.657254
0.9937 0.439087 0.345971 0.389269 0 0.861286 0.662234
1.01868 0.440068 0.344673 0.387867 0 0.890976 0.667175
1.04368 0.441019 0.343421 0.386514 0 0.92099 0.671993
1.06868 0.441939 0.342213 0.385209 0 0.9513 0.67669
1.09368 0.44283 0.341048 0.383948 0 0.981904 0.68127
1.11868 0.443694 0.339923 0.382731 0 1.0128 0.685737
1.14368 0.444531 0.338835 0.381554 0 1.04398 0.690096
1.16868 0.445344 0.337784 0.380416 0 1.07545 0.69435
1.19368 0.446133 0.336767 0.379315 0 1.1072 0.698503
1.21868 0.446899 0.335783 0.378248 0 1.13922 0.702559
1.24368 0.447644 0.33483 0.377215 0 1.17153 0.706522
1.26868 0.448367 0.333906 0.376213 0 1.20411 0.710393
1.29368 0.449071 0.333011 0.375242 0 1.23697 0.714178
1.31868 0.449755 0.332142 0.3743 0 1.27009 0.717877
1.34368 0.450421 0.331299 0.373385 0 1.30348 0.721495
1.36868 0.45107 0.330481 0.372497 0 1.33714 0.725034
1.39368 0.451701 0.329687 0.371634 0 1.37106 0.728496
1.41868 0.452317 0.328915 0.370795 0 1.40525 0.731884
1.44368 0.452916 0.328164 0.36998 0 1.43969 0.7352
1.46868 0.453501 0.327435 0.369186 0 1.47439 0.738446
1.49368 0.454071 0.326725 0.368415 0 1.50935 0.741625
1.51868 0.454627 0.326034 0.367663 0 1.54456 0.744739
1.54368 0.45517 0.325362 0.366932 0 1.58003 0.747788
1.56868 0.4557 0.324707 0.36622 0 1.61575 0.750776
1.59368 0.456217 0.324069 0.365525 0 1.65171 0.753705
1.61868 0.456722 0.323448 0.364849 0 1.68792 0.756575
1.64368 0.457215 0.322842 0.364189 0 1.72438 0.759388
1.66868 0.457698 0.322251 0.363546 0 1.76109 0.762147
1.69368 0.458169 0.321675 0.362918 0 1.79803 0.764852
1.71868 0.45863 0.321113 0.362306 0 1.83522 0.767506
1.74368 0.45908 0.320564 0.361708 0 1.87265 0.770109
1.76868 0.459521 0.320029 0.361124 0 1.91032 0.772662
1.79368 0.459952 0.319506 0.360554 0 1.94822 0.775169
1.81868 0.460374 0.318995 0.359997 0 1.98636 0.777628
1.84368 0.460787 0.318497 0.359453 0 2.02473 0.780043
1.86868 0.461191 0.318009 0.358921 0 2.06334 0.782413
1.89368 0.461587 0.317533 0.358401 0 2.10218 0.78474
1.91868 0.461975 0.317067 0.357893 0 2.14124 0.787026
1.94368 0.462354 0.316611 0.357396 0 2.18054 0.789271
1.96868 0.462726 0.316165 0.35691 0 2.22007 0.791476
1.99368 0.463091 0.31573 0.356434 0 2.25982 0.793642
2.01868 0.463448 0.315303 0.355968 0 2.29979 0.79577
2.04368 0.463799 0.314885 0.355512 0 2.33999 0.797862
2.06868 0.464142 0.314477 0.355065 0 2.38042 0.799918
2.09368 0.464479 0.314076 0.354628 0 2.42106 0.801939
2.11868 0.464809 0.313685 0.3542 0 2.46193 0.803925
2.14368 0.465133 0.313301 0.35378 0 2.50301 0.805878
2.16868 0.465451 0.312924 0.353369 0 2.54432 0.807799
2.19368 0.465763 0.312556 0.352966 0 2.58584 0.809687
2.21868 0.466069 0.312195 0.352572 0 2.62758 0.811545
2.24368 0.46637 0.31184 0.352184 0 2.66953 0.813372
2.26868 0.466665 0.311493 0.351805 0 2.7117 0.81517
2.29368 0.466955 0.311153 0.351432 0 2.75408 0.816938
2.31868 0.46724 0.310819 0.351067 0 2.79667 0.818679
2.34368 0.467519 0.310491 0.350709 0 2.83947 0.820391
2.36868 0.467794 0.31017 0.350357 0 2.88249 0.822077
2.39368 0.468063 0.309854 0.350012 0 2.92571 0.823736
2.41868 0.468329 0.309545 0.349674 0 2.96914 0.825369
2.44368 0.468589 0.309241 0.349341 0 3.01278 0.826977
2.46868 0.468845 0.308943 0.349015 0 3.05663 0.82856
2.49368 0.469097 0.30865 0.348694 0 3.10068 0.830119
2.51868 0.469344 0.308362 0.348379 0 3.14494 0.831655
2.54368 0.469588 0.30808 0.34807 0 3.1894 0.833167
2.56868 0.469827 0.307802 0.347766 0 3.23406 0.834656
2.59368 0.470062 0.30753 0.347468 0 3.27892 0.836123
2.61868 0.470294 0.307262 0.347174 0 3.32399 0.837569
2.64368 0.470521 0.306998 0.346886 0 3.36925 0.838993
2.66868 0.470746 0.30674 0.346603 0 3.41472 0.840397
2.69368 0.470966 0.306485 0.346324 0 3.46038 0.84178
2.71868 0.471183 0.306235 0.34605 0 3.50625 0.843143
2.74368 0.471396 0.305989 0.345781 0 3.55231 0.844486
2.76868 0.471607 0.305748 0.345516 0 3.59856 0.84581
2.79368 0.471814 0.30551 0.345255 0 3.64501 0.847116
2.81868 0.472017 0.305276 0.344999 0 3.69166 0.848403
2.84368 0.472218 0.305046 0.344747 0 3.7385 0.849672
2.86868 0.472415 0.30482 0.344499 0 3.78553 0.850923
2.89368 0.47261 0.304597 0.344255 0 3.83276 0.852157
2.91868 0.472801 0.304378 0.344014 0 3.88017 0.853374
2.94368 0.47299 0.304162 0.343778 0 3.92778 0.854575
2.96868 0.473176 0.30395 0.343545 0 3.97558 0.855759
2.99368 0.473359 0.303741 0.343316 0 4.02357 0.856927
3.01868 0.47354 0.303535 0.34309 0 4.07174 0.858079
3.04368 0.473718 0.303332 0.342868 0 4.12011 0.859216
3.06868 0.473893 0.303133 0.342649 0 4.16866 0.860338
3.09368 0.474066 0.302936 0.342434 0 4.2174 0.861444
3.11868 0.474236 0.302743 0.342222 0 4.26633 0.862537
3.14368 0.474404 0.302552 0.342012 0 4.31544 0.863615
3.16868 0.474569 0.302364 0.341806 0 4.36473 0.864679
3.19368 0.474733 0.302179 0.341603 0 4.41421 0.865729
3.21868 0.474894 0.301997 0.341403 0 4.46387 0.866766
3.24368 0.475052 0.301817 0.341206 0 4.51372 0.867789
3.26868 0.475209 0.30164 0.341012 0 4.56375 0.8688
3.29368 0.475363 0.301465 0.34082 0 4.61396 0.869797
3.31868 0.475515 0.301293 0.340632 0 4.66435 0.870782
3.34368 0.475666 0.301124 0.340446 0 4.71492 0.871755
3.36868 0.475814 0.300957 0.340262 0 4.76567 0.872716
3.39368 0.47596 0.300792 0.340081 0 4.8166 0.873665
3.41868 0.476104 0.300629 0.339903 0 4.8677 0.874602
3.44368 0.476247 0.300469 0.339727 0 4.91899 0.875527
3.46868 0.476387 0.300311 0.339553 0 4.97045 0.876442
3.49368 0.476526 0.300155 0.339382 0 5.02209 0.877345
3.51868 0.476663 0.300001 0.339213 0 5.07391 0.878237
3.54368 0.476798 0.299849 0.339047 0 5.1259 0.879119
3.56868 0.476931 0.2997 0.338882 0 5.17806 0.87999
3.59368 0.477063 0.299552 0.33872 0 5.23041 0.880851
3.61868 0.477193 0.299406 0.33856 0 5.28292 0.881702
3.64368 0.477321 0.299262 0.338402 0 5.33561 0.882542
3.66868 0.477448 0.29912 0.338246 0 5.38847 0.883373
3.69368 0.477573 0.29898 0.338092 0 5.4415 0.884194
3.71868 0.477697 0.298842 0.33794 0 5.4947 0.885006
3.74368 0.477819 0.298705 0.33779 0 5.54808 0.885808
3.76868 0.47794 0.298571 0.337642 0 5.60163 0.886601
3.79368 0.478059 0.298438 0.337496 0 5.65534 0.887385
3.81868 0.478176 0.298306 0.337352 0 5.70923 0.888161
3.84368 0.478293 0.298177 0.337209 0 5.76328 0.888927
3.86868 0.478408 0.298048 0.337069 0 5.8175 0.889685
3.89368 0.478521 0.297922 0.33693 0 5.8719 0.890434
3.91868 0.478633 0.297797 0.336793 0 5.92645 0.891176
3.94368 0.478744 0.297674 0.336657 0 5.98118 0.891908
3.96868 0.478854 0.297552 0.336523 0 6.03607 0.892633
3.99368 0.478962 0.297431 0.336391 0 6.09113 0.89335
4.01868 0.479069 0.297312 0.33626 0 6.14635 0.894059
4.04368 0.479175 0.297195 0.336131 0 6.20174 0.894761
4.06868 0.479279 0.297079 0.336003 0 6.2573 0.895454
4.09368 0.479383 0.296964 0.335877 0 6.31302 0.896141
4.11868 0.479485 0.296851 0.335753 0 6.3689 0.89682
4.14368 0.479586 0.296739 0.335629 0 6.42494 0.897492
4.16868 0.479686 0.296628 0.335508 0 6.48115 0.898156
4.19368 0.479785 0.296518 0.335388 0 6.53752 0.898814
4.21868 0.479883 0.29641 0.335269 0 6.59405 0.899465
4.24368 0.479979 0.296303 0.335151 0 6.65074 0.900109
4.26868 0.480075 0.296198 0.335035 0 6.7076 0.900746
4.29368 0.480169 0.296093 0.33492 0 6.76461 0.901377
4.31868 0.480263 0.29599 0.334806 0 6.82179 0.902001
4.34368 0.480355 0.295888 0.334694 0 6.87912 0.902619
4.36868 0.480447 0.295787 0.334583 0 6.93661 0.903231
4.39368 0.480537 0.295687 0.334473 0 6.99426 0.903836
4.41868 0.480627 0.295588 0.334365 0 7.05207 0.904435
4.44368 0.480715 0.29549 0.334257 0 7.11004 0.905028
4.46868 0.480803 0.295394 0.334151 0 7.16817 0.905616
4.49368 0.480889 0.295298 0.334046 0 7.22645 0.906197
4.51868 0.480975 0.295204 0.333942 0 7.28489 0.906773
4.54368 0.48106 0.29511 0.333839 0 7.34349 0.907343
4.56868 0.481144 0.295018 0.333738 0 7.40224 0.907907
4.59368 0.481227 0.294926 0.333637 0 7.46114 0.908466
4.61868 0.48131 0.294836 0.333537 0 7.52021 0.909019
4.64368 0.481391 0.294746 0.333439 0 7.57942 0.909567
4.66868 0.481472 0.294658 0.333341 0 7.63879 0.91011
4.69368 0.481552 0.29457 0.333245 0 7.69832 0.910647
4.71868 0.481631 0.294483 0.33315 0 7.758 0.91118
4.74368 0.481709 0.294397 0.333055 0 7.81783 0.911707
4.76868 0.481786 0.294312 0.332962 0 7.87781 0.912229
4.79368 0.481863 0.294228 0.332869 0 7.93795 0.912747
4.81868 0.481939 0.294145 0.332778 0 7.99824 0.913259
4.84368 0.482014 0.294063 0.332687 0 8.05868 0.913767
4.86868 0.482088 0.293981 0.332597 0 8.11927 0.91427
4.89368 0.482162 0.2939 0.332509 0 8.18001 0.914768
4.91868 0.482235 0.29382 0.332421 0 8.2409 0.915262
4.94368 0.482307 0.293741 0.332334 0 8.30194 0.915751
4.96868 0.482379 0.293663 0.332247 0 8.36314 0.916236
4.99368 0.48245 0.293585 0.332162 0 8.42448 0.916716
5.01868 0.48252 0.293509 0.332078 0 8.48597 0.917192
5.04368 0.482589 0.293433 0.331994 0 8.54761 0.917663
5.06868 0.482658 0.293357 0.331911 0 8.60939 0.918131
5.09368 0.482726 0.293283 0.331829 0 8.67133 0.918594
5.11868 0.482794 0.293209 0.331748 0 8.73341 0.919053
5.14368 0.482861 0.293136 0.331667 0 8.79564 0.919508
5.16868 0.482927 0.293063 0.331588 0 8.85802 0.919959
5.19368 0.482993 0.292992 0.331509 0 8.92054 0.920405
5.21868 0.483058 0.292921 0.331431 0 8.98321 0.920848
5.24368 0.483123 0.29285 0.331353 0 9.04603 0.921287
5.26868 0.483187 0.292781 0.331276 0 9.10899 0.921723
5.29368 0.48325 0.292712 0.3312 0 9.1721 0.922154
5.31868 0.483313 0.292643 0.331125 0 9.23535 0.922582
5.34368 0.483375 0.292575 0.331051 0 9.29875 0.923006
5.36868 0.483437 0.292508 0.330977 0 9.36229 0.923426
5.39368 0.483498 0.292442 0.330903 0 9.42597 0.923843
5.41868 0.483558 0.292376 0.330831 0 9.4898 0.924256
